Frequency[GHz],Transmittance_p,Transmittance_s
34.0,-4.458015648067894,-4.93884965551182
34.12712712712713,-4.4726772171894105,-4.901350004560305
34.254254254254256,-4.4857121791870815,-4.861682891994061
34.38138138138138,-4.497119968980354,-4.819848356036914
34.508508508508505,-4.506900120146961,-4.775846835672825
34.63563563563564,-4.515052253550379,-4.729679247107362
34.76276276276277,-4.521576067699703,-4.681347067830771
34.88988988988989,-4.526471330791236,-4.630852428933418
35.01701701701702,-4.529737874389921,-4.578198216379661
35.14414414414414,-4.531375588717349,-4.523388182004831
35.271271271271274,-4.531384419521392,-4.466427065060888
35.3983983983984,-4.52976436651093,-4.407320725199748
35.52552552552553,-4.526515483347444,-4.346076287848702
35.65265265265265,-4.521637879193333,-4.282702302998683
35.77977977977978,-4.5151317218252665,-4.217208918493582
35.90690690690691,-4.506997242328897,-4.149608068975173
36.034034034034036,-4.497234741399856,-4.079913681702466
36.16116116116117,-4.485844597284162,-4.008141900525332
36.288288288288285,-4.472827275399863,-3.9343113293463317
36.41541541541542,-4.458183339690493,-3.8584432964503748
36.54254254254254,-4.441913465769733,-3.780562141114831
36.66966966966967,-4.424018455925942,-3.7006955239290424
36.7967967967968,-4.404499256064588,-3.6188747622464885
36.92392392392393,-4.38335697467628,-3.535135192159085
37.05105105105105,-4.360592903928193,-3.4495165583141296
37.17817817817818,-4.336208542986888,-3.3620634327804932
37.30530530530531,-4.310205623691346,-3.2728256640033333
37.432432432432435,-4.282586138705945,-3.1818588566521373
37.55955955955957,-4.253352372294599,-3.0892248828533826
37.686686686686684,-4.222506933869072,-2.994992424890441
37.813813813813816,-4.190052794476467,-2.8992375489320588
37.94094094094094,-4.155993326403647,-2.802044308699934
38.06806806806807,-4.120332346088812,-2.703505377182265
38.1951951951952,-4.083074160543821,-2.6037227035261408
38.32232232232232,-4.044223617503925,-2.502808191072719
38.44944944944945,-4.0037861595351485,-2.400884391116373
38.57657657657658,-3.961767882342875,-2.2980852053531042
38.70370370370371,-3.918175597538655,-2.1945565881196423
38.830830830830834,-3.873016900135235,-2.0904572374048747
38.957957957957966,-3.8263002410525355,-1.9859592612406267
39.08508508508508,-3.778035004929169,-1.881248803463123
39.212212212212215,-3.7282315935449715,-1.7765266100125983
39.33933933933934,-3.6769015151697015,-1.6720085139591707
39.46646646646647,-3.6240574801607597,-1.5679258143910269
39.5935935935936,-3.569713503138278,-1.4645255212901198
39.72072072072072,-3.5138850120689,-1.3620704357034417
39.84784784784785,-3.4565889645882946,-1.2608390320866636
39.97497497497498,-3.3978439718878244,-1.1611251078885447
40.10210210210211,-3.3376704304801303,-1.0632371645330299
40.22922922922923,-3.276090662142002,-0.9674974842521424
40.35635635635636,-3.2131290623089144,-0.8742408690560645
40.48348348348348,-3.1488122571629145,-0.7838130118291149
40.610610610610614,-3.0831692696126103,-0.6965684754155579
40.737737737737746,-3.0162316943090555,-0.6128682638500922
40.86486486486487,-2.948033881772736,-0.5330769807321919
40.991991991991995,-2.8786131316222576,-0.4575595831279595
41.11911911911912,-2.8080098947928507,-0.38667775510067504
41.24624624624625,-2.73626798450958,-0.3207859425790371
41.373373373373376,-2.6634347956343243,-0.26022711007288374
41.50050050050051,-2.589561531833543,-0.20532829878372766
41.627627627627625,-2.5147034398141077,-0.15639608375035985
41.75475475475476,-2.438920049642866,-0.11371204347305502
41.88188188188188,-2.362275419901234,-0.0775283675689058
42.00900900900901,-2.284838386124553,-0.04806373508838973
42.136136136136145,-2.2066828106377305,-0.025499597052611865
42.26326326326326,-2.1278878315196743,-0.009976990799383953
42.390390390390394,-2.0485381080110434,-0.001594000600086035
42.51751751751752,-1.9687240592219324,-0.00040395905010427756
42.64464464464465,-1.8885420925005176,-0.006414457869017344
42.771771771771775,-1.8080948172945754,-0.01958720644884064
42.8988988988989,-1.727491239780619,-0.039838743666343504
43.026026026026024,-1.6468469329586475,-0.06704197528734532
43.153153153153156,-1.5662841763263078,-0.10102847793167474
43.28028028028029,-1.4859320586689362,-0.14159148304943273
43.40740740740741,-1.4059265369513299,-0.18848943231757354
43.53453453453454,-1.3264104437957922,-0.24144998041672577
43.66166166166166,-1.2475334356066028,-0.3001743128147103
43.78878878878879,-1.1694518730861982,-0.3643416448935388
43.91591591591592,-1.0923286257176454,-0.43361377391239164
44.04304304304305,-1.0163327918024883,-0.507639565885582
44.17017017017017,-0.9416393258825788,-0.5860592741929934
44.2972972972973,-0.8684285658833779,-0.6685086042305154
44.42442442442442,-0.7968856531336992,-0.7546224572742998
44.551551551551555,-0.7271998395817737,-0.8440383057291911
44.678678678678686,-0.6595636780687136,-0.936399170023746
44.805805805805804,-0.5941720934579047,-1.0313561838173717
44.932932932932935,-0.5312213347569339,-1.128570748374175
45.06006006006006,-0.47090781109399527,-1.2277162886515056
45.18718718718719,-0.4134268174869883,-1.3284796327770092
45.314314314314316,-0.3589711597103761,-1.4305620432384536
45.44144144144144,-0.30772969113458015,-1.533679932499422
45.56856856856857,-0.25988577807056623,-1.6375652981687419
45.6956956956957,-0.2156157137591881,-1.7419659136180448
45.82282282282283,-0.1750871045404238,-1.8466453093945392
45.94994994994995,-0.13845725474749254,-1.9513825792305237
46.077077077077085,-0.10587157931559037,-2.055972042198716
46.20420420420421,-0.07746207480196361,-2.160222789848485
46.331331331331334,-0.05334588032853936,-2.2639581441930106
46.45845845845846,-0.033623959757654344,-2.3670150493640425
46.58558558558559,-0.018379935116711543,-2.469243416737514
46.712712712712715,-0.007679098873162104,-2.570505440450469
46.83983983983985,-0.0015676291622675664,-2.6706748975409713
46.966966966966964,-7.202758441797298e-05,-2.769636444485777
47.094094094094096,-0.003198793874355922,-2.86728491970653
47.22122122122123,-0.010934345812358111,-2.9635246596664007
47.34834834834835,-0.023245186448431855,-3.0582688344837177
47.475475475475484,-0.04007831431997859,-3.1514388075303224
47.6026026026026,-0.06136186614323704,-3.2429635222457383
47.72972972972973,-0.08700597571786328,-3.3327789183618153
47.85685685685686,-0.11690382774032808,-3.420827378875021
47.98398398398399,-0.15093288106964442,-3.5070572084048486
48.111111111111114,-0.18895623286462565,-3.5914221430143156
48.23823823823824,-0.23082409299215897,-3.673880891125219
48.36536536536537,-0.2763753372031125,-3.754396704817297
48.492492492492495,-0.32543910774176077,-3.8329369805414197
48.61961961961963,-0.37783643120012766,-3.909472888089053
48.74674674674675,-0.4333818254148075,-3.9839790265297603
48.873873873873876,-0.4918848698684639,-4.056433105745617
49.001001001001,-0.5531517172247302,-4.126815652147135
49.12812812812813,-0.6169865271144644,-4.195109737140722
49.25525525525526,-0.6831928069339366,-4.261300726927772
49.38238238238239,-0.7515746480567992,-4.325376052243231
49.509509509509506,-0.8219378493714623,-4.3873249966834305
49.63663663663664,-0.8940909233283844,-4.447138502324625
49.76376376376377,-0.9678459826399206,-4.504808991392878
49.890890890890894,-1.0430195083667886,-4.560330202809035
50.018018018018026,-1.119433002322305,-4.613697042498681
50.14514514514514,-1.1969135285219756,-4.664905446423905
50.272272272272275,-1.2752941498114385,-4.713952255360815
50.3993993993994,-1.3544142668439694,-4.760835100512171
50.52652652652653,-1.4341198672832547,-4.805552299109076
50.653653653653656,-1.5142636935155993,-4.848102759217066
50.78078078078078,-1.5947053373113642,-4.888485893021533
50.90790790790791,-1.6753112698197619,-4.92670153792376
51.03503503503504,-1.7559548150550661,-4.962749884832523
51.16216216216217,-1.836516074675127,-4.996631413086892
51.28928928928929,-1.9168818113979482,-5.02834683149366
51.41641641641642,-1.9969452978803828,-5.05789702500782
51.54354354354355,-2.0766061373207885,-5.085283006626686
51.670670670670674,-2.155770061465429,-5.110505874107955
51.7977977977978,-2.2343487111155746,-5.133566771159172
51.92492492492493,-2.312259403661133,-5.154466852781025
52.05205205205205,-2.3894248916186434,-5.173207254479583
52.17917917917919,-2.465773115633458,-5.189789065093612
52.30630630630631,-2.54123695492341,-5.20421330301197
52.433433433433436,-2.6157539776976106,-5.216480895583853
52.56056056056057,-2.689266193679071,-5.226592661550404
52.687687687687685,-2.7617198104962397,-5.234549296351412
52.814814814814824,-2.8330649953827147,-5.240351360184144
52.94194194194194,-2.90325564333658,-5.243999268714644
53.06906906906907,-2.972249152638376,-5.24549328636353
53.1961961961962,-3.040006208406338,-5.244833522110151
53.32332332332332,-3.1064905746780096,-5.242019927779785
53.45045045045046,-3.171668895345187,-5.23705229879961
53.57757757757758,-3.235510504130914,-5.229930277429755
53.70470470470471,-3.2979872436824147,-5.220653358496506
53.831831831831835,-3.359073293757262,-5.209220897675757
53.95895895895896,-3.4187450084017628,-5.195632122396162
54.08608608608609,-3.4769807619569963,-5.179886145453116
54.213213213213216,-3.5337608036771453,-5.1619819814474415
54.34034034034034,-3.589067120705934,-5.141918566185924
54.46746746746747,-3.64288330912732,-5.119694779205236
54.59459459459459,-3.695194452785609,-5.095309469606329
54.72172172172173,-3.7459870095556425,-5.068761485413456
54.84884884884885,-3.7952487047356396,-5.040049706700211
54.97597597597598,-3.842968431231638,-5.009173082755259
55.10310310310311,-3.889136156202918,-4.976130673592466
55.23023023023023,-3.933742833841747,-4.940921696144108
55.357357357357365,-3.9767803239670547,-4.903545575512203
55.48448448448448,-4.0182413161200765,-4.864002001691752
55.611611611611615,-4.058119258860301,-4.822290992220696
55.73873873873874,-4.096408293971117,-4.778412961255501
55.865865865865864,-4.133103195296912,-4.732368795617848
55.992992992993,-4.168199311946182,-4.684159938407507
56.12012012012012,-4.20169251560829,-4.633788480828992
56.24724724724725,-4.233579151745104,-4.581257262934803
56.374374374374376,-4.263855994432046,-4.526569984046679
56.50150150150151,-4.2925202046364195,-4.469731323676736
56.62862862862863,-4.319569291734402,-4.4107470738338925
56.75575575575576,-4.345001078080676,-4.3496242836661185
56.88288288288288,-4.368813666457616,-4.286371417455693
57.010010010010014,-4.391005410243261,-4.22099852705161
57.137137137137145,-4.411574886149295,-4.153517439889974
57.26426426426427,-4.430520869391863,-4.083941963817826
57.391391391391394,-4.447842311169431,-4.012288109996634
57.51851851851852,-4.463538318332723,-3.938574335216649
57.64564564564565,-4.477608135142353,-3.862821804999545
57.772772772772775,-4.4900511270199726,-3.785054678900266
57.89989989989991,-4.5008667662087,-3.7053004194367523
58.027027027027025,-4.510054619268119,-3.623590126071861
58.15415415415416,-4.517614336338446,-3.5399588956397117
58.28128128128128,-4.523545642117687,-3.4544462105419487
58.40840840840841,-4.527848328504287,-3.367096355928459
58.535535535535544,-4.530522248866465,-3.277958866913
58.66266266266266,-4.531567313908147,-3.1870890066438315
58.7897897897898,-4.530983489109512,-3.09454827574108
58.91691691691692,-4.5287707937286985,-3.000404953209312
59.04404404404405,-4.524929301359368,-2.904734668420125
59.171171171171174,-4.519459142047052,-2.807621003115719
59.2982982982983,-4.512360505975541,-2.7091561215909565
59.42542542542543,-4.5036336487427,-2.609441426247111
59.552552552552555,-4.493278898253674,-2.5085882345535095
59.67967967967969,-4.4812966632676785,-2.406718472083046
59.80680680680681,-4.467687443643457,-2.303965374685722
59.933933933933936,-4.452451842337075,-2.200474191014532
60.06106106106107,-4.435590579214849,-2.0964028745130285
60.18818818818819,-4.4171045067534305,-1.9919227516138738
60.31531531531532,-4.396994627708545,-1.8872191502944697
60.44244244244245,-4.375262114843778,-1.7824919703231208
60.569569569569566,-4.3519083328207895,-1.6779561735563844
60.696696696696705,-4.326934862362916,-1.5738421695977831
60.82382382382382,-4.300343526814906,-1.4703960691112679
60.950950950950954,-4.272136421232633,-1.367879774249331
61.078078078078086,-4.242315944148229,-1.2665708731972574
61.2052052052052,-4.210884832168061,-1.1667623039834065
61.33233233233234,-4.177846197573042,-1.0687617517350017
61.45945945945946,-4.143203569103621,-0.9728907437776413
61.58658658658659,-4.106960936124461,-0.8794834087131633
61.713713713713716,-4.06912279637716,-0.78888486919795
61.84084084084084,-4.029694207542583,-0.7014492438875513
61.96796796796797,-3.9886808428479084,-0.6175372421622388
62.0950950950951,-3.9460890509668785,-0.5375133459451694
62.22222222222223,-3.9019259204749357,-0.461742586168366
62.34934934934935,-3.8561993491341546,-0.390586937035784
62.47647647647648,-3.808918118294828,-0.32440136874895287
62.60360360360361,-3.7600919727126265,-0.2635296181167232
62.730730730730734,-3.7097317060904027,-0.20829975552509522
62.85785785785786,-3.6578492526627877,-0.15901964492395693
62.98498498498499,-3.604457785148813,-0.11597240945995554
63.11211211211211,-3.5495718194023307,-0.07941202774091474
63.23923923923925,-3.49320732609141,-0.049559193114688524
63.366366366366364,-3.4353818497358315,-0.026597569649236225
63.493493493493496,-3.3761146354246803,-0.01067057293493246
63.62062062062063,-3.3154267635237176,-0.0018787911085756202
63.74774774774775,-3.253341292663051,-0.00027814190973575367
63.874874874874884,-3.1898834112687586,-0.005878836015257308
64.002002002002,-3.1250805978656433,-0.018645186804449806
64.12912912912913,-3.0589627903314742,-0.038496273972667354
64.25625625625626,-2.9915625642233348,-0.06530743518386646
64.38338338338339,-2.922915320222109,-0.09891252843268816
64.51051051051051,-2.8530594806510963,-0.13910688000113297
64.63763763763764,-2.782036694914145,-0.18565081050601184
64.76476476476476,-2.7098920535680984,-0.23827361568850064
64.8918918918919,-2.6366743105891954,-0.29667786985452765
65.01901901901903,-2.5624361132110947,-0.36054391819551496
65.14614614614615,-2.4872342385012476,-0.4295344290307512
65.27327327327328,-2.411129835599251,-0.5032988873227753
65.4004004004004,-2.334188672262896,-0.5814779253556326
65.52752752752752,-2.2564813840532487,-0.6637074038372971
65.65465465465466,-2.178083724136796,-0.7496221755101913
65.78178178178179,-2.0990768112898963,-0.8388594823731415
65.90890890890891,-2.0195473732578777,-0.9310619557851145
66.03603603603605,-1.9395879821491933,-1.0258802052371074
66.16316316316316,-1.8592972780370478,-1.1229749959033692
66.2902902902903,-1.7787801764002207,-1.2220190269229614
66.41741741741743,-1.6981480544699654,-1.3226983316328897
66.54454454454455,-1.6175189109684454,-1.4247133277616533
66.67167167167167,-1.5370174931407352,-1.5277795501020366
66.7987987987988,-1.4567753844124653,-1.6316281007006317
66.92592592592592,-1.3769310454691168,-1.736005852453897
67.05305305305306,-1.2976298010772007,-1.8406754415175917
67.18018018018017,-1.2190237645778415,-1.945415082442075
67.30730730730731,-1.1412716917175678,-2.050018237724584
67.43443443443444,-1.0645387553725911,-2.1542931707770125
67.56156156156156,-0.9889962328143376,-2.2580624083521843
67.6886886886887,-0.9148210974968035,-2.3611621354189767
67.81581581581581,-0.8421955079627523,-2.463441542458688
67.94294294294295,-0.7713061874055794,-2.5647621422626923
68.07007007007007,-0.702343688722733,-2.6649970706101174
68.1971971971972,-0.6355015415801621,-2.7640303827340857
68.32432432432432,-0.5709752800909504,-2.8617563552654213
68.45145145145146,-0.508961352192805,-2.9580788013807373
68.57857857857859,-0.44965591466783383,-3.0529104051706413
68.70570570570571,-0.3932535209379586,-3.1461720797736046
68.83283283283284,-0.3399457122220796,-3.237792352570981
68.95995995995996,-0.28991952625700285,-3.3277067796920923
69.0870870870871,-0.24335594144128408,-3.415857391210943
69.21421421421421,-0.2004282778103514,-3.50219216770886
69.34134134134135,-0.16130057952704682,-3.5866645483081467
69.46846846846847,-0.1261260063971591,-3.6692329698311745
69.5955955955956,-0.09504526411446962,-3.749860436391745
69.72272272272272,-0.06818510433913119,-3.828514118461519
69.84984984984986,-0.045656926170210596,-3.905164980262602
69.97697697697699,-0.02755550998108946,-3.9797874342041206
70.1041041041041,-0.01395791288410218,-4.052359020995639
70.23123123123123,-0.0049225522745882985,-4.122860114023135
70.35835835835837,-0.0004885000317881179,-4.191273646558117
70.4854854854855,-0.0006750051455597146,-4.25758486037863
70.61261261261261,-0.005481256971993552,-4.321781074408134
70.73973973973975,-0.014886395224393433,-4.383851472019166
70.86686686686687,-0.028849766441164465,-4.443786905700319
70.993993993994,-0.04731142031870295,-4.501579717843509
71.12112112112113,-0.07019283323420755,-4.557223576471569
71.24824824824825,-0.09739784077067626,-4.610713324792318
71.37537537537537,-0.1288137563174805,-4.662044843532136
71.50250250250251,-0.16431264902884457,-4.711214925069057
71.62962962962965,-0.20375275169484588,-4.758221158451236
71.75675675675676,-0.24697996746775897,-4.8030618244509
71.88388388388388,-0.2938294438819958,-4.8457357998659205
72.01101101101102,-0.34412718314368257,-4.886242470340429
72.13813813813815,-0.39769165913474036,-4.9245816510326605
72.26526526526526,-0.45433541382913084,-4.960753514512113
72.3923923923924,-0.5138666086869577,-4.99475852531872
72.51951951951952,-0.576090509896455,-5.026597380664828
72.64664664664664,-0.6408108898982114,-5.056270956805991
72.77377377377378,-0.7078313312842683,-5.083780260648779
72.90090090090091,-0.7769564227723917,-5.1091263862036875
73.02802802802803,-0.8479928403901531,-5.132310475528627
73.15515515515516,-0.9207503101692399,-5.153333683843403
73.2822822822823,-0.9950424514798423,-5.172197148528582
73.4094094094094,-1.0706875025848903,-5.188901961753029
73.53653653653653,-1.147508932045406,-5.2034491465036705
73.66366366366367,-1.2253359412597662,-5.215839635818606
73.7907907907908,-1.304003864688648,-5.226074255050664
73.91791791791792,-1.3833544752301654,-5.234153707013755
74.04504504504504,-1.46323620280107,-5.24007855988775
74.17217217217218,-1.5435042744922964,-5.243849237780886
74.2992992992993,-1.6240207847404518,-5.245466013870555
74.42642642642643,-1.704654703834691,-5.244929006065025
74.55355355355357,-1.785281832800608,-5.242238175149776
74.68068068068068,-1.8657847123056273,-5.237393325402705
74.8078078078078,-1.9460524927486589,-5.230394107683642
74.93493493493494,-2.02598077215658,-5.221240025023794
75.06206206206208,-2.1054714079387997,-5.209930440762241
75.18918918918918,-2.1844323079673735,-5.196464589297483
75.31631631631632,-2.2627772058694955,-5.180841589544088
75.44344344344346,-2.3404254248557304,-5.16306046120695
75.57057057057058,-2.417301633869603,-5.14312014400888
75.69769769769769,-2.4933355993385944,-5.121019520031709
75.82482482482483,-2.5684619353376914,-5.096757439356546
75.95195195195195,-2.642619854547192,-5.070332749215681
76.07907907907908,-2.7157529219968124,-5.041744326896811
76.20620620620622,-2.787808813237807,-5.010991116670737
76.33333333333334,-2.858739078273736,-4.97807217104506
76.46046046046045,-2.9284989123054457,-4.942986696680773
76.58758758758759,-2.9970469341053168,-4.905734105344532
76.71471471471473,-3.064344972627207,-4.8663140703082295
76.84184184184184,-3.13035786227928,-4.824726588648164
76.96896896896897,-3.195053247133383,-4.7809720499401855
77.0960960960961,-3.25840139421579,-4.7350513118935265
77.22322322322323,-3.320375015915577,-4.6869657835156335
77.35035035035034,-3.380949101457988,-4.636717516452173
77.47747747747748,-3.440100757316632,-4.584309305202289
77.60460460460462,-3.4978090563801487,-4.529744796966736
77.73173173173173,-3.55405489564272,-4.473028611947324
77.85885885885887,-3.6088208621524953,-4.414166474979526
77.98598598598599,-3.6620911069251023,-4.353165359444986
